#Wave		#Intensity
1800.5293	5.45789
1798.05859	6.32191
1795.58789	3.43447
1793.11523	22.14152
1790.64258	-9.98013
1788.16992	-5.26622
1785.69727	2.51892
1783.22266	9.02191
1780.74609	6.0879
1778.26953	-24.21199
1775.79297	9.43991
1773.31641	1.05481
1770.83789	-24.34724
1768.35742	-15.71552
1765.87891	18.23849
1763.39844	6.95466
1760.91602	-6.13017
1758.43555	-5.82642
1755.95117	4.59961
1753.46875	1.29948
1750.98438	-3.79562
1748.49805	6.65021
1746.01367	-2.02411
1743.52734	-6.52633
1741.03906	13.70581
1738.55078	-1.39308
1736.0625	29.87508
1733.57422	12.31727
1731.08398	10.29656
1728.5918	-5.91583
1726.09961	23.11776
1723.60742	11.49949
1721.11523	42.94566
1718.62109	32.68818
1716.12695	20.69616
1713.63086	46.34513
1711.13477	49.21856
1708.63672	8.31502
1706.14063	-9.49424
1703.64063	23.77658
1701.14258	47.24048
1698.64258	26.98446
1696.14063	16.87506
1693.64063	-21.28743
1691.13867	34.08564
1688.63477	12.44937
1686.13086	-29.1347
1683.62695	-10.56809
1681.12109	7.922
1678.61523	14.52827
1676.10938	-2.54682
1673.60156	0.1973
1671.09375	-8.37237
1668.58398	32.37394
1666.07422	63.40826
1663.56445	119.59229
1661.05273	152.13011
1658.54102	293.39656
1656.02734	498.29903
1653.51367	716.45303
1651	793.67702
1648.48438	754.71528
1645.96875	682.07216
1643.45313	558.66699
1640.93555	453.51942
1638.41797	301.40981
1635.89844	208.18358
1633.37891	190.3558
1630.85938	146.39528
1628.33789	144.66124
1625.81641	111.47096
1623.29297	124.21747
1620.76953	119.39355
1618.24609	196.73292
1615.7207	233.02103
1613.19531	202.18988
1610.66992	208.72263
1608.14258	229.15059
1605.61328	201.70293
1603.08594	270.6784
1600.55664	226.8669
1598.02539	286.34376
1595.49414	265.55601
1592.96289	245.38622
1590.42969	173.21789
1587.89648	193.61897
1585.36328	236.92817
1582.82813	273.91991
1580.29297	393.25271
1577.75586	447.8578
1575.21875	513.66092
1572.68164	532.31673
1570.14258	475.23728
1567.60352	415.63872
1565.0625	331.79829
1562.52148	262.41067
1559.98047	160.33551
1557.4375	163.76862
1554.89453	140.31448
1552.34961	96.34498
1549.80469	105.39922
1547.25977	100.28077
1544.71289	123.81593
1542.16602	99.362
1539.61914	110.95603
1537.07031	123.70991
1534.51953	152.40548
1531.9707	114.17282
1529.41797	132.00163
1526.86719	150.99159
1524.31445	179.57561
1521.76172	262.553
1519.20703	428.8564
1516.65234	611.50681
1514.0957	769.93613
1511.53906	860.99557
1508.98242	777.90211
1506.42383	641.30635
1503.86523	548.56944
1501.30664	393.95607
1498.74609	261.10594
1496.18555	164.18926
1493.62305	123.66169
1491.06055	88.00157
1488.49609	55.10341
1485.93164	82.17745
1483.36719	63.69785
1480.80078	86.25933
1478.23438	104.20034
1475.66797	76.6329
1473.09961	60.72376
1470.53125	83.70555
1467.96094	18.2665
1465.39063	11.09645
1462.81836	-9.57047
1460.24609	-8.14002
1457.67383	-6.60493
1455.09961	-0.78185
1452.52539	2.52698
1449.95117	27.88711
1447.375	40.27131
1444.79688	23.49835
1442.2207	66.88213
1439.64258	60.74668
1437.0625	41.66565
1434.48242	54.5136
1431.90234	37.1977
1429.32031	59.08805
1426.73828	49.26107
1424.1543	52.55633
1421.57031	54.89471
1418.98633	25.55245
1416.40039	56.69982
1413.81445	17.13447
1411.22656	7.33032
1408.63867	-11.75058
1406.05078	-12.54464
1403.46094	11.68857
1400.87109	50.0104
1398.2793	97.21417
1395.6875	79.02865
1393.0957	127.37248
1390.50195	112.96049
1387.9082	99.66056
1385.3125	117.03592
1382.7168	222.08856
1380.11914	151.94225
1377.52148	209.36919
1374.92383	219.67851
1372.32422	324.80723
1369.72461	514.82722
1367.125	736.35188
1364.52344	864.14755
1361.91992	792.26939
1359.31836	609.31179
1356.71289	432.20363
1354.10938	338.4405
1351.50391	239.61409
1348.89648	198.21442
1346.29102	125.38389
1343.68164	57.28594
1341.07422	-20.54076
1338.46484	-14.72589
1335.85352	-5.27027
1333.24219	-8.16144
1330.63086	10.62054
1328.01758	70.11781
1325.4043	108.48898
1322.78906	184.96074
1320.17383	232.0713
1317.55859	323.42104
1314.94141	358.6723
1312.32422	398.03279
1309.70508	362.85361
1307.08594	308.69711
1304.4668	235.06618
1301.8457	155.84639
1299.22461	104.40911
1296.60156	92.53471
1293.97852	132.49554
1291.35352	144.74308
1288.72852	135.96404
1286.10352	91.82411
1283.47656	79.4875
1280.84961	85.60072
1278.2207	92.22439
1275.5918	103.44898
1272.96289	68.08848
1270.33203	84.42427
1267.70117	75.68035
1265.06836	85.3452
1262.43555	79.65975
1259.80078	58.64055
1257.16602	38.13376
1254.53125	63.07825
1251.89453	11.92716
1249.25781	14.89233
1246.61914	-1.54574
1243.98047	-4.21979
1241.3418	16.03456
1238.70117	33.7108
1236.05859	3.45788
1233.41797	22.10278
1230.77539	33.07724
1228.13086	42.49619
1225.48633	36.10664
1222.83984	8.83763
1220.19531	-12.8499
1217.54688	-9.63154
1214.90039	15.91788
1212.25	-27.68148
1209.60156	37.92991
1206.95117	54.719
1204.29883	63.34438
1201.64844	130.29117
1198.99414	97.72493
1196.3418	126.51084
1193.68555	134.96575
1191.03125	167.70491
1188.375	187.71941
1185.71875	223.38513
1183.06055	273.6764
1180.40039	245.93585
1177.74219	255.11211
1175.08203	147.87913
1172.41992	108.44506
1169.75781	42.69961
1167.0957	36.088
1164.43164	49.64877
1161.76758	17.69237
1159.10156	12.47477
1156.43555	18.3184
1153.76758	-15.75595
1151.10156	14.21103
1148.43164	17.3836
1145.76172	-2.68868
1143.0918	9.45806
1140.41992	-0.62242
1137.74805	42.14046
1135.07617	63.6747
1132.40234	103.26621
1129.72656	168.94902
1127.05273	166.61953
1124.375	125.5162
1121.69922	111.53075
1119.01953	62.82296
1116.3418	36.19568
1113.66211	7.52171
1110.98242	-1.60781
1108.30078	-22.8338
1105.61719	-22.02242
1102.93555	-16.25368
1100.25195	-12.04897
1097.56641	-6.90045
1094.88086	-17.85036
1092.19336	5.72009
1089.50781	39.73442
1086.81836	25.10409
1084.12891	60.47902
1081.43945	28.22207
1078.75	-10.57528
1076.05859	6.1024
1073.36523	6.71576
1070.67188	-9.22049
1067.97852	-19.70857
1065.2832	-10.76839
1062.58789	-10.37836
1059.89063	20.40179
1057.19336	-1.28442
1054.49414	2.92565
1051.79492	9.07221
1049.0957	21.64023
1046.39453	33.14986
1043.69336	48.58373
1040.99023	41.54469
1038.28711	48.89519
1035.58203	35.28652
1032.87695	51.48737
1030.16992	53.70144
1027.46289	30.00919
1024.75586	10.75687
1022.04688	8.3641
1019.33789	-9.96968
1016.62695	16.85208
1013.91602	14.81935
1011.20313	18.20354
1008.49023	29.48107
1005.77734	32.77504
1003.0625	40.48937
1000.34766	61.04701
997.63086	29.52887
994.91406	7.90165
992.19531	0.1186
989.47656	9.63313
986.75586	20.59494
984.03516	11.73263
981.31445	35.98199
978.5918	18.16773
975.86719	-4.6018
973.14258	-3.17032
970.41797	-3.73598
967.69141	26.78582
964.96484	47.39959
962.23828	48.24835
959.50977	26.88631
956.7793	44.48311
954.04883	75.37003
951.31836	89.96849
948.58594	100.61204
945.85352	106.32207
943.11914	115.4748
940.38477	115.27317
937.64844	148.04108
934.91211	162.59682
932.17578	191.90379
929.4375	218.74622
926.69727	203.32711
923.95703	144.70726
921.2168	146.05451
918.47461	137.60444
915.73242	99.24861
912.98828	118.34347
910.24414	102.14431
907.5	97.75415
904.75391	69.38541
902.00586	53.81082
899.25781	48.08185
896.50977	46.31576
893.75977	33.33698
891.00977	28.24283
888.25781	15.37455
885.50586	-14.54939
882.75195	-4.31319
879.99805	-19.92842
877.24219	-45.24553
874.48633	-16.76262
871.73047	-4.83477
868.97266	16.42438
866.21484	1.63139
863.45508	-7.71682
860.69336	-16.4996
857.93359	-1.31921
855.16992	27.08434
852.4082	5.8583
849.64453	-16.24901
846.87891	32.32696
844.11328	30.34029
841.34766	9.46397
838.58008	7.65322
835.81055	8.36057
833.04102	-12.71802
830.27148	10.03223
827.5	12.9421
824.72852	26.13476
821.95508	36.49623
819.18164	13.45781
816.4082	10.89682
813.63086	26.37173
810.85547	8.47431
808.07813	-8.83704
805.29883	2.05092
802.52148	10.11131
799.74023	45.36834
796.95898	2.28157
794.17773	8.17349
791.39453	5.43982
788.61133	25.99746
785.82617	16.17098
783.04102	75.04263
780.25586	155.6877
777.4668	223.31899
774.67969	290.97349
771.89063	276.13237
769.09961	262.8139
766.30859	214.84146
763.51758	131.28098
760.72461	57.46921
757.93164	33.86083
755.13672	31.98884
752.3418	36.89935
749.54492	-1.95507
746.74805	38.15817
743.94922	33.05954
741.15039	5.38535
738.34961	13.3192
735.54883	-2.28804
732.74805	21.0306
729.94531	-3.20656
727.14063	-1.0284
724.33594	-21.42057
721.53125	8.55563
718.72461	5.39717
715.91797	-36.14664
713.10938	7.61374
710.30078	-10.9862
707.49023	-18.60653
704.67969	2.92769
701.86719	10.02581
699.05469	15.13397
696.24023	-22.88787
693.42578	-5.02083
690.61133	-14.98189
687.79492	-14.51774
684.97656	-11.28815
682.1582	14.75382
679.33984	10.11062
676.51953	16.80703
673.69727	6.20113
670.875	-13.1116
668.05273	23.23902
665.22852	16.05782
662.4043	46.85925
659.57813	17.96042
656.75195	44.6469
653.92383	32.13962
651.0957	70.88618
648.26563	71.40785
645.43555	80.82047
642.60352	96.74135
639.77148	84.47562
636.93945	64.48337
634.10547	56.7247
631.26953	85.40692
628.43359	85.00779
625.5957	121.0392
622.75781	103.83685
619.91992	162.90389
617.08008	266.42436
614.24023	594.42191
611.39844	627.56196
608.55469	317.38621
605.71289	154.17413
602.86719	90.96109
600.02148	39.21979
597.17578	8.90138
594.32813	40.20174
591.48047	22.98922
588.63086	6.01237
585.78125	13.40097
582.93164	4.5786
580.07813	-28.8788
577.22656	-16.12463
574.37305	-4.30452
571.51758	-4.19522
568.66211	27.17393
565.80469	17.76146
562.94727	-2.16956
560.08984	-7.09678
557.23047	10.59267
554.36914	1.56837
551.50781	-19.46187
548.64648	16.27827