#Wave		#Intensity
1800.60156	1.05E-5
1798.94824	-212.24205
1797.2959	408.52534
1795.6416	298.46199
1793.98828	-215.10337
1792.33398	288.50009
1790.67871	599.35152
1789.02344	383.78269
1787.36816	-186.23692
1785.71191	270.32788
1784.05566	14.26867
1782.39844	148.37374
1780.74121	190.44161
1779.08398	-278.19796
1777.42578	-105.44353
1775.76758	545.02434
1774.1084	299.13822
1772.44922	-145.33477
1770.78906	-261.61006
1769.12891	70.3343
1767.46875	258.69973
1765.80762	-438.97065
1764.14551	-104.88309
1762.48438	-139.42219
1760.82129	-347.15118
1759.15918	187.83052
1757.49609	713.67245
1755.83203	319.12769
1754.16797	67.42813
1752.50391	276.02976
1750.83887	187.77017
1749.17383	29.26389
1747.50879	318.74936
1745.84277	346.65487
1744.17578	100.78318
1742.50879	212.10825
1740.8418	-235.27995
1739.17383	135.49398
1737.50586	609.3082
1735.83691	1261.28898
1734.16797	813.18476
1732.49902	656.58941
1730.8291	249.50497
1729.15918	327.94791
1727.48828	1229.5211
1725.81738	1398.53944
1724.14551	1698.8925
1722.47363	641.87319
1720.80078	1245.69356
1719.12891	1693.10148
1717.45508	699.48528
1715.78125	1793.49171
1714.10742	994.07071
1712.43359	369.91508
1710.75781	669.93647
1709.08301	782.52211
1707.40723	230.1517
1705.73144	607.49857
1704.05469	160.93021
1702.37695	-14.5502
1700.70019	-12.5397
1699.02246	157.22091
1697.34375	-387.18202
1695.66504	-495.78444
1693.98633	55.24776
1692.30664	23.01495
1690.62695	-125.10079
1688.94629	874.17813
1687.26563	70.84617
1685.58398	193.71044
1683.90234	212.9062
1682.21973	1250.56109
1680.53809	748.31893
1678.85449	664.40147
1677.1709	1231.61072
1675.48731	701.02887
1673.80371	672.34626
1672.11816	1430.47267
1670.43359	2320.3228
1668.74805	2547.3612
1667.06152	1361.46683
1665.37598	2407.25542
1663.68848	2251.02613
1662.00195	3469.37246
1660.31348	2999.71971
1658.62598	3256.6521
1656.9375	4335.37637
1655.24805	5284.76453
1653.55859	4405.72944
1651.86914	4673.39741
1650.17871	5981.58154
1648.48828	6170.76509
1646.79688	7152.59455
1645.10547	7714.77676
1643.41406	7978.1591
1641.72168	8332.16496
1640.02832	8609.91303
1638.33496	9209.96394
1636.6416	10215.43533
1634.94727	12579.66721
1633.25293	12466.1134
1631.55762	13479.84533
1629.86231	14334.02854
1628.16699	15497.49724
1626.4707	15157.31159
1624.77344	15351.75232
1623.07617	17103.4948
1621.37891	18196.65759
1619.68066	19333.77478
1617.98242	19816.10828
1616.2832	21115.32742
1614.58398	23467.92214
1612.88477	23855.21423
1611.18457	25726.35935
1609.4834	27192.32956
1607.7832	28979.24499
1606.08106	30201.39783
1604.37988	31806.01521
1602.67676	31614.6404
1600.97461	33559.84333
1599.27148	35192.8989
1597.56738	35998.48269
1595.86328	36591.12976
1594.15918	37149.00788
1592.4541	36761.17644
1590.74805	37675.93972
1589.04297	37731.55281
1587.33691	38761.09011
1585.62988	37972.74929
1583.92285	38728.29812
1582.21484	37700.86081
1580.50684	37834.10417
1578.79883	38052.91433
1577.08984	37815.56511
1575.38086	37514.1905
1573.6709	36329.15066
1571.95996	34784.02234
1570.25	32439.29646
1568.53906	29741.54294
1566.82715	27580.19177
1565.11523	24672.18396
1563.40332	23531.32409
1561.69043	21640.63708
1559.97656	20026.28464
1558.26269	19298.5321
1556.54883	17519.69265
1554.83398	17063.21643
1553.11914	16800.19143
1551.4043	15837.43166
1549.6875	15991.52429
1547.97168	14328.22278
1546.25488	14256.99709
1544.53711	13967.94563
1542.82031	13415.91736
1541.10156	13328.17878
1539.38281	14267.60783
1537.66406	13824.30378
1535.94434	14839.66404
1534.22461	14473.10124
1532.50488	16245.54329
1530.78418	15916.20627
1529.0625	17038.18459
1527.34082	18550.56296
1525.61914	19262.81775
1523.89648	20149.95701
1522.17383	20954.04988
1520.45019	21781.30632
1518.72656	23268.87536
1517.00195	23730.11247
1515.27734	24142.1821
1513.55176	24508.1112
1511.82617	24146.29187
1510.09961	23214.7696
1508.37402	20863.20232
1506.64648	19093.81902
1504.91894	17473.54187
1503.19141	15666.3842
1501.46289	14201.90798
1499.73438	13346.14055
1498.00488	10706.63743
1496.27539	9320.15036
1494.54492	6791.92981
1492.81445	7026.87141
1491.08398	5703.10903
1489.35254	5627.39675
1487.62012	4217.35108
1485.88769	3496.47379
1484.15527	1575.17515
1482.42188	3006.84233
1480.68848	1735.61789
1478.9541	1318.61101
1477.21973	1357.34001
1475.48438	314.34692
1473.74902	224.34498
1472.01269	182.85397
1470.27637	617.53785
1468.54004	1702.64595
1466.80273	2757.38094
1465.06445	2433.69127
1463.32715	4180.29321
1461.58789	5240.50354
1459.84863	6553.06609
1458.10938	7576.69304
1456.36914	8702.24382
1454.62891	9421.90398
1452.88867	11273.85891
1451.14648	11860.83044
1449.40527	11985.47898
1447.66309	10651.61189
1445.91992	11256.97073
1444.17676	9774.38303
1442.43359	8760.57009
1440.68945	7528.52685
1438.94531	6354.19363
1437.20019	4638.15063
1435.4541	3432.32074
1433.70898	2026.51045
1431.96191	887.87293
1430.21582	255.71603
1428.46875	156.51378
1426.7207	532.95681
1424.97266	-511.75253
1423.22363	-563.30129
1421.47461	775.14219
1419.72559	370.12007
1417.97559	1154.24474
1416.22461	2272.18353
1414.47461	2302.06495
1412.72266	3349.61581
1410.9707	4264.80437
1409.21875	6345.80747
1407.46582	6658.96433
1405.71289	8283.69629
1403.95898	8338.44241
1402.20508	8431.19975
1400.45117	10427.54353
1398.69531	14075.67214
1396.94043	19698.89792
1395.18457	25517.79284
1393.42773	34860.65593
1391.6709	44016.02839
1389.91406	54825.96706
1388.15625	64391.5696
1386.39844	70001.39558
1384.63965	72265.08074
1382.87988	71524.01863
1381.12109	65640.85222
1379.36035	56711.16824
1377.60059	49525.18562
1375.83887	43389.69929
1374.07813	36320.71784
1372.31641	30378.65095
1370.55371	26776.10095
1368.79102	22779.20007
1367.02734	21757.06404
1365.26367	19260.14968
1363.5	16848.60935
1361.73535	14454.20945
1359.96973	13620.30027
1358.2041	12257.61868
1356.43848	10929.10105
1354.67188	9975.10119
1352.90527	8007.33044
1351.13769	6662.63215
1349.37012	6112.00764
1347.60156	6863.4144
1345.83301	5483.5647
1344.06348	5937.38823
1342.29394	6001.44336
1340.52344	6024.59309
1338.75293	7022.65654
1336.98144	4808.43213
1335.20996	5972.28894
1333.4375	5849.29487
1331.66504	5428.65246
1329.89258	4064.66273
1328.11914	4797.95315
1326.34473	5401.30581
1324.57031	4825.65561
1322.7959	4474.27732
1321.02051	5204.08064
1319.24414	4888.18496
1317.46875	4239.7287
1315.69141	4165.49503
1313.91406	5983.08015
1312.13672	5293.41626
1310.3584	4836.30891
1308.58008	5522.89868
1306.80078	5641.69172
1305.02148	5804.26946
1303.24121	6131.04504
1301.46094	6204.81677
1299.67969	6366.36911
1297.89844	6530.46648
1296.11621	5825.56477
1294.33398	6731.33537
1292.55176	5392.55154
1290.76856	5957.1393
1288.98438	5369.03882
1287.20019	5446.12461
1285.41504	4397.7396
1283.62988	3510.60957
1281.84473	4799.31077
1280.05859	4617.32239
1278.27148	4841.87063
1276.48438	3848.6765
1274.69727	4596.12449
1272.90918	3690.4777
1271.12109	3603.54559
1269.33203	3460.75713
1267.54199	3437.48384
1265.75195	2452.70919
1263.96191	1508.97811
1262.1709	2594.68862
1260.37988	1332.54953
1258.58789	1203.05166
1256.7959	1055.79506
1255.00293	-103.77844
1253.20996	43.32236
1251.41602	26.83403
1249.62207	144.15586
1247.82715	264.11265
1246.03223	165.31595
1244.23633	104.24747
1242.44043	930.98868
1240.64356	1233.26134
1238.84668	2134.65788
1237.04883	2354.78336
1235.25098	2906.24356
1233.45313	3928.3714
1231.6543	2906.55682
1229.85449	3262.70447
1228.05469	2352.06095
1226.25391	2809.94042
1224.45313	2765.35028
1222.65234	1104.03405
1220.84961	619.13439
1219.04785	1124.00449
1217.24512	265.6069
1215.44141	388.06802
1213.63769	87.50065
1211.83398	1911.80564
1210.0293	1881.17222
1208.22363	2925.63729
1206.41797	3825.18711
1204.61231	5489.04336
1202.80566	7057.0384
1200.99805	6636.87895
1199.19043	7088.26975
1197.38281	4919.85876
1195.57422	5228.20347
1193.76465	4909.87812
1191.95508	4228.35429
1190.14551	3845.52214
1188.33496	3547.50005
1186.52441	3028.14969
1184.71289	2538.85533
1182.90039	2642.38056
1181.08789	1139.82134
1179.27539	1136.02233
1177.46191	1214.03347
1175.64844	627.15512
1173.83398	-47.62069
1172.01856	-110.03072
1170.20313	-390.1461
1168.38769	56.78769
1166.57129	625.67663
1164.75488	640.05767
1162.9375	1818.24092
1161.11914	2370.08296
1159.30078	3512.54602
1157.48242	5423.45373
1155.66309	7722.83889
1153.84375	8097.20644
1152.02344	9010.1112
1150.20313	11075.71755
1148.38184	12736.96623
1146.55957	13210.57571
1144.73731	13851.9719
1142.91504	14572.11604
1141.0918	14481.87859
1139.26856	14384.74949
1137.44434	14246.42224
1135.61914	14161.50041
1133.79394	15785.92732
1131.96875	16838.36159
1130.14258	16039.35466
1128.31641	14901.87859
1126.48926	13002.70647
1124.66113	10757.33274
1122.83398	9865.06037
1121.00488	8234.5324
1119.17578	7490.11367
1117.34668	6216.31037
1115.5166	5730.86738
1113.68555	4767.68618
1111.85449	5314.73721
1110.02344	4781.26697
1108.19141	4538.28271
1106.35938	4833.7239
1104.52637	5521.7405
1102.69238	4668.35915
1100.8584	5522.2896
1099.02441	5026.4635
1097.18945	5721.09951
1095.35352	6123.78374
1093.51758	7052.08884
1091.68164	8124.02912
1089.84473	8986.56106
1088.00684	9349.57292
1086.16894	9975.8487
1084.33106	10922.03816
1082.49219	11539.61453
1080.65234	11655.40984
1078.8125	12065.48611
1076.97168	11965.59973
1075.13086	11824.72336
1073.29004	10967.01179
1071.44824	10636.55608
1069.60547	9899.13616
1067.76269	10125.41936
1065.91894	10214.0654
1064.07519	9271.78474
1062.23047	9232.97986
1060.38574	9289.00515
1058.54102	10408.82707
1056.69434	11702.20456
1054.84863	11693.2365
1053.00098	12447.15495
1051.1543	12649.70447
1049.30566	12547.72117
1047.45801	11810.16999
1045.6084	10058.79665
1043.75977	8931.17869
1041.90918	8056.73786
1040.05859	7225.91819
1038.20801	6303.0333
1036.35644	5223.22212
1034.50488	5042.49189
1032.65234	4083.39277
1030.79981	2939.05171
1028.94629	1770.4458
1027.0918	371.65831
1025.23731	161.03141
1023.38281	111.45676
1021.52734	-126.64511
1019.6709	-181.26657
1017.81445	12.06389
1015.95801	286.94916
1014.10059	998.05474
1012.24219	1492.03712
1010.38379	2559.52388
1008.52539	3668.3731
1006.66602	5307.87016
1004.80566	6462.63432
1002.94531	8428.57322
1001.08398	9477.03718
999.22266	7636.71018
997.36035	6316.36338
995.49805	4782.6738
993.63477	3771.20157
991.77148	3247.68865
989.90723	3265.06286
988.04297	3449.74623
986.17773	3944.62281
984.3125	4555.88047
982.44629	4482.06721
980.5791	4936.64595
978.71191	4625.18764
976.84473	5390.52742
974.97656	5451.63813
973.10742	6482.38745
971.23828	6266.23152
969.36914	6546.51538
967.49902	7280.9145
965.62793	7789.77639
963.75684	7609.27073
961.88477	8751.44924
960.0127	8871.85676
958.13965	8119.33694
956.2666	8406.59858
954.39355	8527.18708
952.51855	8802.19685
950.64355	9468.38083
948.76855	10235.40788
946.89258	9536.6175
945.0166	10081.87512
943.13965	10376.89744
941.2627	11279.65955
939.38477	12210.52146
937.50586	11462.99939
935.62695	11342.71594
933.74707	11008.94617
931.86719	11360.22244
929.9873	10210.34529
928.10645	9381.45437
926.22461	8937.18953
924.34277	8724.35945
922.45996	7629.0095
920.57715	6998.59421
918.69336	7240.87607
916.80957	6734.28491
914.9248	5485.05972
913.03906	5568.62136
911.1543	3841.95865
909.26758	3647.28978
907.38086	3231.70383
905.49414	2634.20205
903.60645	2852.18523
901.71777	3286.86446
899.8291	2396.03098
897.93945	2295.3571
896.0498	2242.67663
894.15918	1521.57785
892.26855	1653.60408
890.37695	1731.32125
888.48535	2409.84145
886.59277	4034.13096
884.7002	5586.8969
882.80664	7493.57334
880.91211	9107.89245
879.01758	9958.17815
877.12305	9363.56848
875.22754	9267.37966
873.33105	7752.62495
871.43457	7354.20942
869.53711	5163.48747
867.63965	5406.14155
865.74121	4603.82312
863.84277	3724.08718
861.94336	3722.48321
860.04395	3147.80637
858.14355	2586.77363
856.24219	2086.21407
854.34082	1222.6497
852.43945	1269.42084
850.53711	1186.94009
848.63379	604.45579
846.73047	961.9351
844.82617	1341.45581
842.92188	721.72991
841.0166	259.28511
839.11133	-383.44271
837.20508	277.94711
835.29883	67.6449
833.3916	11.93329
831.4834	99.81794
829.5752	-5.77234
827.66699	-5.96842
825.75684	857.94165
823.84766	93.73492
821.9375	910.90538
820.02637	818.11182
818.11426	1610.81773
816.20313	1332.88406
814.29004	1152.88802
812.37695	1147.31463
810.46387	1542.92738
808.5498	1320.56951
806.63477	1592.39172
804.71973	1224.97926
802.80371	1231.66045
800.8877	1595.80229
798.9707	2000.79045
797.05371	1481.19323
795.13574	2142.76719
793.21777	1801.24238
791.29883	1343.2059
789.37891	1319.12127
787.45898	1581.58653
785.53906	1588.60008
783.61719	2015.58965
781.69629	1694.70763
779.77344	1094.7235
777.85156	1406.94598
775.92773	1113.68342
774.00391	2003.8861
772.08008	1408.1312
770.15527	1848.76834
768.22949	1537.91579
766.30371	875.26145
764.37793	376.80885
762.4502	1288.11448
760.52344	829.81018
758.59473	993.9137
756.66602	486.42779
754.7373	102.06666
752.80762	-286.61411
750.87695	368.728
748.94629	805.02412
747.01563	-149.96802
745.08301	95.36145
743.15137	48.63756
741.21777	916.81131
739.28418	976.06735
737.35059	1208.40279
735.41602	1343.33638
733.48047	2132.02045
731.54492	1258.5185
729.60938	1478.74447
727.67188	2214.00928
725.73535	2154.31296
723.79688	2382.4789
721.8584	2093.95616
719.91992	2275.99363
717.98047	2863.36942
716.04004	3181.65375
714.09961	3238.79876
712.1582	3538.59991
710.2168	4045.45281
708.27441	4314.7755
706.33203	4774.31225
704.38867	4971.63381
702.44434	5624.86711
700.5	5340.16587
698.55566	6233.82046
696.61035	6662.36196
694.66406	7469.53254
692.7168	6967.67869
690.77051	8041.52261
688.82227	9709.70344
686.87402	10814.33933
684.92578	11704.30559
682.97559	14689.12131
681.02637	17103.40764
679.0752	18850.9696
677.125	21121.65408
675.17285	21664.12878
673.2207	20623.89665
671.26855	20382.48484
669.31543	20301.66765
667.36133	19278.1781
665.40723	18318.32634
663.45215	18387.25925
661.49707	17657.20369
659.54102	16705.84729
657.58398	14985.03469
655.62695	13144.19705
653.66895	12646.74314
651.71094	12158.5885
649.75195	11318.90945
647.79297	11592.73899
645.83301	10668.21501
643.87305	11575.96667
641.91211	13130.09792
639.9502	13839.53494
637.98828	15679.42512
636.02539	17326.97048
634.0625	17961.7283
632.09863	19938.05798
630.13379	20534.03142
628.16895	19668.15261
626.20313	19969.93328
624.2373	18382.30456
622.27148	17403.49333
620.30371	16734.99094
618.33594	15709.66799
616.36816	14604.14001
614.39941	14130.18601
612.42969	13166.89407
610.45996	11937.94084
608.48926	10260.55251
606.51855	9337.27952
604.54688	8165.18933
602.57422	7468.7112
600.60156	6975.12712
598.62793	6051.32861
596.6543	4976.71565
594.67969	4790.11096
592.70508	3654.39343
590.72949	2018.42473
588.75293	1312.56749
586.77637	1500.37726
584.79883	984.82694
582.82129	524.28659
580.84277	112.07976
578.86426	125.26424
576.88477	-475.71095
574.9043	191.8562
572.92383	386.82499
570.94238	2017.1676
568.96094	2709.67746
566.97852	4498.59958
564.99512	5149.64265
563.01172	5929.75061
561.02734	6483.36003
559.04297	7204.21015
557.05762	7078.87051
555.07227	5998.87117
553.08594	4174.27827
551.09863	1512.71963
549.11133	34.9273