#Wave		#Intensity
1800.5293	-7.78353
1798.05859	-11.80466
1795.58789	3.84578
1793.11523	7.27223
1790.64258	3.26163
1788.16992	32.59702
1785.69727	7.3615
1783.22266	-20.66184
1780.74609	-12.7489
1778.26953	18.49513
1775.79297	21.52801
1773.31641	9.75588
1770.83789	-15.41436
1768.35742	9.61186
1765.87891	8.37941
1763.39844	10.87245
1760.91602	30.42616
1758.43555	41.16467
1755.95117	21.20836
1753.46875	-29.36865
1750.98438	-5.30349
1748.49805	-8.16073
1746.01367	-22.62369
1743.52734	-0.91554
1741.03906	5.5722
1738.55078	7.81218
1736.0625	4.16917
1733.57422	-1.0314
1731.08398	7.45248
1728.5918	-6.12788
1726.09961	0.94559
1723.60742	13.44536
1721.11523	-8.64231
1718.62109	16.7047
1716.12695	-1.43796
1713.63086	-9.83696
1711.13477	-14.77334
1708.63672	-15.92229
1706.14063	-12.62399
1703.64063	-0.60053
1701.14258	-41.54925
1698.64258	17.60141
1696.14063	15.85904
1693.64063	17.88033
1691.13867	2.56464
1688.63477	-3.39561
1686.13086	-18.45525
1683.62695	7.42805
1681.12109	4.76559
1678.61523	16.3493
1676.10938	-11.45475
1673.60156	23.64346
1671.09375	33.15443
1668.58398	49.95487
1666.07422	38.87924
1663.56445	161.20114
1661.05273	218.4829
1658.54102	399.83516
1656.02734	645.08962
1653.51367	722.2649
1651	821.37702
1648.48438	739.46978
1645.96875	578.62565
1643.45313	473.23887
1640.93555	341.6955
1638.41797	280.6077
1635.89844	183.19235
1633.37891	187.57219
1630.85938	126.47956
1628.33789	144.52103
1625.81641	144.51768
1623.29297	159.81827
1620.76953	157.40338
1618.24609	166.02988
1615.7207	198.0916
1613.19531	200.35259
1610.66992	204.16624
1608.14258	249.65634
1605.61328	269.91969
1603.08594	305.41036
1600.55664	386.4236
1598.02539	425.58561
1595.49414	397.84974
1592.96289	314.6737
1590.42969	334.98105
1587.89648	347.36833
1585.36328	434.81146
1582.82813	504.86386
1580.29297	654.76858
1577.75586	771.97613
1575.21875	709.62965
1572.68164	652.74808
1570.14258	634.77694
1567.60352	606.0082
1565.0625	524.25521
1562.52148	379.83532
1559.98047	291.85645
1557.4375	239.83688
1554.89453	180.30735
1552.34961	182.30544
1549.80469	168.67034
1547.25977	210.02737
1544.71289	170.65676
1542.16602	298.26537
1539.61914	382.0414
1537.07031	421.37851
1534.51953	394.0053
1531.9707	367.88556
1529.41797	320.38833
1526.86719	300.98103
1524.31445	298.33022
1521.76172	301.77164
1519.20703	335.8338
1516.65234	418.56746
1514.0957	586.38512
1511.53906	869.85478
1508.98242	995.7851
1506.42383	887.93048
1503.86523	712.45635
1501.30664	501.31897
1498.74609	305.75424
1496.18555	219.43656
1493.62305	174.68169
1491.06055	111.61727
1488.49609	65.318
1485.93164	20.98545
1483.36719	-5.62812
1480.80078	10.52619
1478.23438	12.2348
1475.66797	4.01056
1473.09961	35.94588
1470.53125	11.08439
1467.96094	-2.50138
1465.39063	18.27851
1462.81836	-68.3364
1460.24609	-48.7509
1457.67383	3.23516
1455.09961	21.91806
1452.52539	13.73911
1449.95117	22.26802
1447.375	3.32017
1444.79688	14.19753
1442.2207	-12.93202
1439.64258	-56.93197
1437.0625	-13.25043
1434.48242	18.64765
1431.90234	8.1053
1429.32031	41.39372
1426.73828	25.24539
1424.1543	100.78575
1421.57031	37.87148
1418.98633	41.42273
1416.40039	3.91045
1413.81445	-33.18081
1411.22656	-20.13589
1408.63867	0.62798
1406.05078	-6.24899
1403.46094	21.66371
1400.87109	32.45332
1398.2793	73.86477
1395.6875	107.69886
1393.0957	157.17732
1390.50195	135.49338
1387.9082	77.99182
1385.3125	94.31685
1382.7168	172.01407
1380.11914	182.111
1377.52148	190.0603
1374.92383	178.72731
1372.32422	273.11652
1369.72461	588.56658
1367.125	941.94344
1364.52344	1041.62767
1361.91992	886.26871
1359.31836	792.84425
1356.71289	643.18512
1354.10938	457.60312
1351.50391	267.77398
1348.89648	135.07192
1346.29102	89.48788
1343.68164	54.74446
1341.07422	19.76937
1338.46484	37.32591
1335.85352	17.34219
1333.24219	-0.67753
1330.63086	-0.95341
1328.01758	24.7002
1325.4043	66.79332
1322.78906	101.34036
1320.17383	200.54485
1317.55859	196.66904
1314.94141	191.89275
1312.32422	269.05578
1309.70508	281.34272
1307.08594	198.59175
1304.4668	171.9408
1301.8457	123.6314
1299.22461	57.45494
1296.60156	45.73801
1293.97852	-15.92045
1291.35352	38.73791
1288.72852	93.69738
1286.10352	66.05663
1283.47656	45.66969
1280.84961	53.55298
1278.2207	94.69767
1275.5918	117.32358
1272.96289	67.2058
1270.33203	70.40804
1267.70117	33.50626
1265.06836	51.44455
1262.43555	35.86704
1259.80078	30.00147
1257.16602	18.50303
1254.53125	-13.64132
1251.89453	13.33619
1249.25781	17.46445
1246.61914	43.7706
1243.98047	22.24331
1241.3418	-8.65505
1238.70117	-22.37524
1236.05859	-15.18874
1233.41797	-24.25256
1230.77539	-17.7318
1228.13086	18.07969
1225.48633	-0.40093
1222.83984	-8.29669
1220.19531	-16.21204
1217.54688	22.26254
1214.90039	18.02746
1212.25	45.20721
1209.60156	71.40807
1206.95117	38.45651
1204.29883	45.92459
1201.64844	42.4759
1198.99414	103.95488
1196.3418	138.95397
1193.68555	203.09503
1191.03125	223.69259
1188.375	269.38673
1185.71875	412.146
1183.06055	422.94081
1180.40039	367.01951
1177.74219	212.82294
1175.08203	184.51688
1172.41992	124.9008
1169.75781	68.69505
1167.0957	81.84679
1164.43164	40.78722
1161.76758	7.45489
1159.10156	14.32313
1156.43555	35.99651
1153.76758	1.35776
1151.10156	-30.51071
1148.43164	-15.43297
1145.76172	-41.7839
1143.0918	-0.22394
1140.41992	-4.09559
1137.74805	-6.76173
1135.07617	-18.09446
1132.40234	98.21354
1129.72656	85.86883
1127.05273	221.11873
1124.375	226.24477
1121.69922	156.80948
1119.01953	125.87452
1116.3418	57.07541
1113.66211	9.52372
1110.98242	33.95308
1108.30078	31.89745
1105.61719	19.98174
1102.93555	-9.15747
1100.25195	44.95129
1097.56641	25.91196
1094.88086	36.64394
1092.19336	41.51713
1089.50781	58.64166
1086.81836	25.73989
1084.12891	79.92226
1081.43945	78.26576
1078.75	52.9997
1076.05859	55.30314
1073.36523	15.9418
1070.67188	19.14466
1067.97852	41.30715
1065.2832	9.9024
1062.58789	24.38276
1059.89063	42.81683
1057.19336	16.90952
1054.49414	-38.93622
1051.79492	-25.72174
1049.0957	-29.31856
1046.39453	-11.85816
1043.69336	-5.09686
1040.99023	29.4146
1038.28711	31.8757
1035.58203	45.60973
1032.87695	-5.58782
1030.16992	-1.61035
1027.46289	-2.81688
1024.75586	17.89755
1022.04688	46.81419
1019.33789	7.85166
1016.62695	-17.0956
1013.91602	20.92107
1011.20313	10.27081
1008.49023	80.16275
1005.77734	52.48616
1003.0625	23.00391
1000.34766	27.85024
997.63086	2.0374
994.91406	34.19665
992.19531	22.05006
989.47656	-8.88779
986.75586	-16.76616
984.03516	13.54593
981.31445	-6.7502
978.5918	12.94442
975.86719	43.83055
973.14258	4.48491
970.41797	-60.549
967.69141	21.45703
964.96484	55.94433
962.23828	6.38424
959.50977	-18.96686
956.7793	-27.68316
954.04883	45.14544
951.31836	56.04769
948.58594	81.43439
945.85352	52.50746
943.11914	32.04984
940.38477	47.18909
937.64844	36.70642
934.91211	128.38003
932.17578	59.46204
929.4375	106.82391
926.69727	170.41897
923.95703	194.26296
921.2168	172.37805
918.47461	122.85167
915.73242	51.42355
912.98828	55.48615
910.24414	74.58156
907.5	74.75783
904.75391	43.12297
902.00586	27.13134
899.25781	23.16852
896.50977	2.42942
893.75977	-7.4834
891.00977	-3.88124
888.25781	10.22722
885.50586	27.34442
882.75195	27.10389
879.99805	-32.6867
877.24219	-61.289
874.48633	-14.75246
871.73047	-11.58424
868.97266	12.241
866.21484	8.28523
863.45508	-0.71527
860.69336	-1.61194
857.93359	-35.01903
855.16992	-13.14568
852.4082	-5.86884
849.64453	-14.66578
846.87891	-4.92634
844.11328	7.83168
841.34766	-13.94378
838.58008	-3.18486
835.81055	26.67694
833.04102	-6.25208
830.27148	-13.80834
827.5	6.6625
824.72852	12.30389
821.95508	12.34878
819.18164	37.71948
816.4082	56.0022
813.63086	-25.77346
810.85547	43.72222
808.07813	21.2097
805.29883	23.70798
802.52148	2.53885
799.74023	16.15348
796.95898	26.27323
794.17773	5.0424
791.39453	13.82494
788.61133	48.14947
785.82617	44.03584
783.04102	83.81036
780.25586	111.50543
777.4668	221.79307
774.67969	531.10376
771.89063	779.101
769.09961	572.50601
766.30859	305.26849
763.51758	122.74936
760.72461	56.16232
757.93164	44.29961
755.13672	26.62502
752.3418	-32.2509
749.54492	-42.0636
746.74805	-4.92585
743.94922	23.13175
741.15039	25.61947
738.34961	-5.68213
735.54883	6.38098
732.74805	14.38727
729.94531	16.2805
727.14063	-1.16949
724.33594	-30.30343
721.53125	3.24046
718.72461	-40.44524
715.91797	-18.84712
713.10938	5.72628
710.30078	36.78879
707.49023	12.42249
704.67969	-15.70078
701.86719	15.169
699.05469	2.37567
696.24023	8.95971
693.42578	-14.02344
690.61133	12.80863
687.79492	-8.07761
684.97656	12.61612
682.1582	-35.44857
679.33984	-1.01158
676.51953	27.2601
673.69727	-28.08238
670.875	-14.16075
668.05273	14.6268
665.22852	22.64288
662.4043	54.55896
659.57813	49.6582
656.75195	-0.77912
653.92383	-32.85176
651.0957	5.59519
648.26563	20.66132
645.43555	15.27842
642.60352	41.59343
639.77148	20.97233
636.93945	55.60844
634.10547	20.64519
631.26953	-11.14044
628.43359	-36.26191
625.5957	57.46566
622.75781	-4.62981
619.91992	109.00774
617.08008	506.51508
614.24023	1048.59013
611.39844	665.00709
608.55469	218.17534
605.71289	78.16661
602.86719	85.27417
600.02148	11.60801
597.17578	0.37371
594.32813	-3.48128
591.48047	17.7228
588.63086	-8.06132
585.78125	-17.68381
582.93164	-12.27675
580.07813	23.5195
577.22656	18.62056
574.37305	-0.86939
571.51758	-0.7947
568.66211	-9.98424
565.80469	-24.31231
562.94727	-12.53829
560.08984	15.012
557.23047	-2.13235
554.36914	19.1883
551.50781	10.45546
548.64648	-16.08878